Time (ms),centerDistance_sensor (mm),centerDistance_observer (mm),centerDistance_error (mm),distL_sensor (mm),distL_observer (mm),distL_error (mm),distR_sensor (mm),distR_observer (mm),distR_error (mm),heading_sensor,heading_observer,heading_error,headingRate_sensor,headingRate_observer,headingRate_error,omegaL_sensor (rad/s),omegaL_observer (rad/s),omegaL_error (rad/s),omegaR_sensor (rad/s),omegaR_observer (rad/s),omegaR_error (rad/s)
0,0.0,0.0,0.0,0.0,0.0,0.0,0.0,0.0,0.0,0.0,0.0,0.0,0.0,0.0,0.0,0.0,0.0,0.0,0.0,0.0,0.0
22,0.0,0.0,0.0,0.0,0.0,0.0,0.0,0.0,0.0,0.0,0.0,0.0,0.0,0.0,0.0,0.0,0.0,0.0,0.0,0.0,0.0
174,11.70621,0.0,11.70621,11.32365,0.0,11.32365,12.08877,0.0,12.08877,5.588326,0.0,5.588326,-0.009375,0.0,-0.009375,2.575267,0.0,2.575267,2.752729,0.0,2.752729
423,35.5777,0.0,35.5777,35.19514,0.0,35.19514,35.96025,0.0,35.96025,5.588326,0.0,5.588326,-0.008284169,0.0,-0.008284169,2.784503,0.0,2.784503,3.000733,0.0,3.000733
680,60.9029,0.0,60.9029,60.29081,0.0,60.29081,61.51499,0.0,61.51499,5.588326,0.0,5.588326,-0.008284169,0.0,-0.008284169,2.788035,0.0,2.788035,2.782984,0.0,2.782984
861,79.03606,0.0,79.03606,78.6535,0.0,78.6535,79.41861,0.0,79.41861,5.588326,0.0,5.588326,-0.008284169,0.0,-0.008284169,3.07387,0.0,3.07387,2.802934,0.0,2.802934
1056,99.235,0.0,99.235,98.85245,0.0,98.85245,99.61756,0.0,99.61756,5.588326,0.0,5.588326,-0.01155666,0.0,-0.01155666,2.850109,0.0,2.850109,2.847072,0.0,2.847072
1239,117.0621,0.0,117.0621,116.7561,0.0,116.7561,117.3681,0.0,117.3681,5.588326,0.0,5.588326,-0.007193339,0.0,-0.007193339,2.851968,0.0,2.851968,3.056474,0.0,3.056474
1376,131.4462,0.0,131.4462,131.1402,0.0,131.1402,131.7522,0.0,131.7522,5.588326,0.0,5.588326,-0.01046583,0.0,-0.01046583,2.95703,0.0,2.95703,2.752696,0.0,2.752696
1615,155.6237,0.0,155.6237,155.3177,0.0,155.3177,155.9298,0.0,155.9298,5.588326,0.0,5.588326,-0.009375,0.0,-0.009375,2.752696,0.0,2.752696,2.765506,0.0,2.765506
1856,179.3422,0.0,179.3422,179.0362,0.0,179.0362,179.6482,0.0,179.6482,5.588326,0.0,5.588326,-0.009375,0.0,-0.009375,2.882428,0.0,2.882428,2.881669,0.0,2.881669
2059,199.6177,0.0,199.6177,199.2351,0.0,199.2351,200.0002,0.0,200.0002,5.588326,0.0,5.588326,-0.01046583,0.0,-0.01046583,2.633654,0.0,2.633654,3.024675,0.0,3.024675
2257,219.3575,0.0,219.3575,219.128,0.0,219.128,219.5871,0.0,219.5871,5.588326,0.0,5.588326,-0.01046583,0.0,-0.01046583,3.050812,0.0,3.050812,3.04833,0.0,3.04833
2453,239.5565,0.0,239.5565,239.174,0.0,239.174,239.9391,0.0,239.9391,5.588326,0.0,5.588326,-0.01046583,0.0,-0.01046583,2.913029,0.0,2.913029,2.906315,0.0,2.906315
2693,263.1985,0.0,263.1985,262.7394,0.0,262.7394,263.6575,0.0,263.6575,5.588326,0.0,5.588326,-0.008284169,0.0,-0.008284169,2.65833,0.0,2.65833,2.894967,0.0,2.894967
2876,281.1786,0.0,281.1786,280.643,0.0,280.643,281.7142,0.0,281.7142,5.588326,0.0,5.588326,-0.009375,0.0,-0.009375,2.80153,0.0,2.80153,2.785644,0.0,2.785644
3018,295.1801,0.0,295.1801,294.7211,0.0,294.7211,295.6392,0.0,295.6392,5.588326,0.0,5.588326,-0.008284169,0.0,-0.008284169,3.173295,0.0,3.173295,2.701991,0.0,2.701991
3143,307.575,0.0,307.575,307.2689,0.0,307.2689,307.881,0.0,307.881,5.588326,0.0,5.588326,-0.01373832,0.0,-0.01373832,3.148345,0.0,3.148345,2.769635,0.0,2.769635
3383,331.2934,0.0,331.2934,330.9874,0.0,330.9874,331.5995,0.0,331.5995,5.588326,0.0,5.588326,-0.01046583,0.0,-0.01046583,2.807516,0.0,2.807516,3.05846,0.0,3.05846
3579,351.4158,0.0,351.4158,351.0333,0.0,351.0333,351.7984,0.0,351.7984,5.588326,0.0,5.588326,-0.01046583,0.0,-0.01046583,2.667521,0.0,2.667521,2.903692,0.0,2.903692
3774,371.5383,0.0,371.5383,371.2322,0.0,371.2322,371.8443,0.0,371.8443,5.588326,0.0,5.588326,-0.009375,0.0,-0.009375,2.821729,0.0,2.821729,3.015912,0.0,3.015912
4013,395.5628,0.0,395.5628,395.2567,0.0,395.2567,395.8688,0.0,395.8688,5.588326,0.0,5.588326,-0.009375,0.0,-0.009375,2.717128,0.0,2.717128,2.729917,0.0,2.729917
4210,415.3027,0.0,415.3027,414.9966,0.0,414.9966,415.6087,0.0,415.6087,5.588326,0.0,5.588326,-0.008284169,0.0,-0.008284169,2.901333,0.0,2.901333,2.916656,0.0,2.916656
4342,427.468,0.0,427.468,427.2384,0.0,427.2384,427.6975,0.0,427.6975,5.588326,0.0,5.588326,-0.007193339,0.0,-0.007193339,2.903512,0.0,2.903512,2.897327,0.0,2.897327
4579,451.2629,0.0,451.2629,450.9569,0.0,450.9569,451.569,0.0,451.569,5.588326,0.0,5.588326,-0.009375,0.0,-0.009375,2.825329,0.0,2.825329,2.809155,0.0,2.809155
4720,465.2645,0.0,465.2645,464.8819,0.0,464.8819,465.647,0.0,465.647,5.588326,0.0,5.588326,-0.009375,0.0,-0.009375,2.674593,0.0,2.674593,2.894377,0.0,2.894377
4901,483.3976,0.0,483.3976,482.9386,0.0,482.9386,483.8567,0.0,483.8567,5.588326,0.0,5.588326,-0.009375,0.0,-0.009375,2.741505,0.0,2.741505,2.754392,0.0,2.754392
5096,503.367,0.0,503.367,502.8314,0.0,502.8314,503.9026,0.0,503.9026,5.588326,0.0,5.588326,-0.009375,0.0,-0.009375,2.890177,0.0,2.890177,2.883316,0.0,2.883316
5335,527.4681,0.0,527.4681,527.162,0.0,527.162,527.7741,0.0,527.7741,5.588326,0.0,5.588326,-0.009375,0.0,-0.009375,2.990909,0.0,2.990909,3.005595,0.0,3.005595
5530,547.2845,0.0,547.2845,547.0549,0.0,547.0549,547.514,0.0,547.514,5.588326,0.0,5.588326,-0.009375,0.0,-0.009375,2.938546,0.0,2.938546,2.70823,0.0,2.70823
5663,559.5262,0.0,559.5262,559.2968,0.0,559.2968,559.7558,0.0,559.7558,5.588326,0.0,5.588326,-0.008284169,0.0,-0.008284169,2.825506,0.0,2.825506,2.819909,0.0,2.819909
5900,583.6273,0.0,583.6273,583.3212,0.0,583.3212,583.9333,0.0,583.9333,5.588326,0.0,5.588326,-0.009375,0.0,-0.009375,2.934133,0.0,2.934133,2.920832,0.0,2.920832
6040,597.3993,0.0,597.3993,597.0933,0.0,597.0933,597.7053,0.0,597.7053,5.588326,0.0,5.588326,-0.008284169,0.0,-0.008284169,2.749196,0.0,2.749196,2.958669,0.0,2.958669
6221,615.4559,0.0,615.4559,615.1498,0.0,615.1498,615.762,0.0,615.762,5.588326,0.0,5.588326,-0.007193339,0.0,-0.007193339,3.037564,0.0,3.037564,2.846928,0.0,2.846928
6415,635.8079,0.0,635.8079,635.5018,0.0,635.5018,636.114,0.0,636.114,5.588326,0.0,5.588326,-0.008284169,0.0,-0.008284169,2.803326,0.0,2.803326,2.983837,0.0,2.983837
6654,659.5264,0.0,659.5264,659.2203,0.0,659.2203,659.8324,0.0,659.8324,5.588326,0.0,5.588326,-0.01046583,0.0,-0.01046583,2.779581,0.0,2.779581,2.793104,0.0,2.793104
6895,683.3214,0.0,683.3214,682.9388,0.0,682.9388,683.7039,0.0,683.7039,5.588326,0.0,5.588326,-0.007193339,0.0,-0.007193339,2.661387,0.0,2.661387,2.956496,0.0,2.956496
7043,697.6289,0.0,697.6289,697.3229,0.0,697.3229,697.9349,0.0,697.9349,5.588326,0.0,5.588326,-0.01046583,0.0,-0.01046583,3.083409,0.0,3.083409,2.867466,0.0,2.867466
7223,715.0735,0.0,715.0735,714.4614,0.0,714.4614,715.6855,0.0,715.6855,5.588326,0.0,5.588326,-0.008284169,0.0,-0.008284169,2.798042,0.0,2.798042,2.82782,0.0,2.82782
7420,735.655,0.0,735.655,735.2725,0.0,735.2725,736.0375,0.0,736.0375,5.588326,0.0,5.588326,-0.008284169,0.0,-0.008284169,3.013002,0.0,3.013002,2.824463,0.0,2.824463
7615,755.4714,0.0,755.4714,755.1653,0.0,755.1653,755.7775,0.0,755.7775,5.588326,0.0,5.588326,-0.008284169,0.0,-0.008284169,2.97933,0.0,2.97933,2.774154,0.0,2.774154
7899,783.4745,0.0,783.4745,783.1685,0.0,783.1685,783.7806,0.0,783.7806,5.588326,0.0,5.588326,-0.01046583,0.0,-0.01046583,2.825316,0.0,2.825316,3.069656,0.0,3.069656
8093,803.6735,0.0,803.6735,803.3674,0.0,803.3674,803.9795,0.0,803.9795,5.588326,0.0,5.588326,-0.01046583,0.0,-0.01046583,2.866258,0.0,2.866258,3.085294,0.0,3.085294
8283,821.577,0.0,821.577,821.271,0.0,821.271,821.8831,0.0,821.8831,5.588326,0.0,5.588326,-0.01046583,0.0,-0.01046583,2.687196,0.0,2.687196,2.943955,0.0,2.943955
8420,835.2725,0.0,835.2725,835.043,0.0,835.043,835.502,0.0,835.502,5.588326,0.0,5.588326,-0.009375,0.0,-0.009375,2.802192,0.0,2.802192,2.814821,0.0,2.814821
8661,859.3735,0.0,859.3735,859.0675,0.0,859.0675,859.6796,0.0,859.6796,5.588326,0.0,5.588326,-0.009375,0.0,-0.009375,2.838335,0.0,2.838335,3.054542,0.0,3.054542
8800,873.3751,0.0,873.3751,873.1456,0.0,873.1456,873.6046,0.0,873.6046,5.588326,0.0,5.588326,-0.01155666,0.0,-0.01155666,2.782984,0.0,2.782984,2.993688,0.0,2.993688
8981,891.5848,0.0,891.5848,891.3552,0.0,891.3552,891.8143,0.0,891.8143,5.588326,0.0,5.588326,-0.009375,0.0,-0.009375,2.724682,0.0,2.724682,2.94713,0.0,2.94713
9175,911.2482,0.0,911.2482,910.9421,0.0,910.9421,911.5542,0.0,911.5542,5.588326,0.0,5.588326,-0.008284169,0.0,-0.008284169,2.80141,0.0,2.80141,2.797974,0.0,2.797974
9414,935.3492,0.0,935.3492,934.8137,0.0,934.8137,935.8847,0.0,935.8847,5.588326,0.0,5.588326,-0.008284169,0.0,-0.008284169,2.717387,0.0,2.717387,2.730442,0.0,2.730442
9663,959.2971,0.0,959.2971,958.9911,0.0,958.9911,959.6032,0.0,959.6032,5.588326,0.0,5.588326,-0.01046583,0.0,-0.01046583,2.797407,0.0,2.797407,2.800094,0.0,2.800094
9859,979.3431,0.0,979.3431,979.0371,0.0,979.0371,979.6492,0.0,979.6492,5.588326,0.0,5.588326,-0.007193339,0.0,-0.007193339,2.832817,0.0,2.832817,2.793978,0.0,2.793978
10043,997.7058,0.0,997.7058,997.3998,0.0,997.3998,998.0118,0.0,998.0118,5.588326,0.0,5.588326,-0.01046583,0.0,-0.01046583,2.712032,0.0,2.712032,2.9914,0.0,2.9914
10180,1011.631,0.0,1011.631,1011.478,0.0,1011.478,1011.784,0.0,1011.784,5.588326,0.0,5.588326,-0.009375,0.0,-0.009375,2.948521,0.0,2.948521,2.741354,0.0,2.741354
10376,1031.753,0.0,1031.753,1031.524,0.0,1031.524,1031.983,0.0,1031.983,5.588326,0.0,5.588326,-0.008284169,0.0,-0.008284169,2.862823,0.0,2.862823,2.856977,0.0,2.856977
10615,1055.472,0.0,1055.472,1055.242,0.0,1055.242,1055.701,0.0,1055.701,5.588326,0.0,5.588326,-0.008284169,0.0,-0.008284169,2.944294,0.0,2.944294,2.747468,0.0,2.747468
10803,1073.681,0.0,1073.681,1073.452,0.0,1073.452,1073.911,0.0,1073.911,5.588326,0.0,5.588326,-0.01046583,0.0,-0.01046583,2.97845,0.0,2.97845,2.936244,0.0,2.936244
10941,1087.453,0.0,1087.453,1087.224,0.0,1087.224,1087.683,0.0,1087.683,5.588326,0.0,5.588326,-0.01046583,0.0,-0.01046583,2.730835,0.0,2.730835,2.9541,0.0,2.9541
